Tiempo (s),Temperatura (K),Resistencia (Ohm)
1.502,421.75,2217.90492
7.127,419.15,2231.81374
12.689,418.05,2245.22988
18.161,417.00999999999993,2258.61654
23.643,416.00999999999993,2271.7379
29.115,414.85,2284.76034
34.592,413.89,2297.5300799999995
40.058,412.95,2310.1863399999997
45.551,412.16999999999996,2322.68448
51.022,410.95,2335.0099600000003
56.505,410.27,2347.24074
61.988,409.15,2359.2672599999996
67.480,408.31000000000006,2371.17798
72.963,407.59,2382.9076
78.447,406.63,2394.4604
83.916,405.87,2405.89738
89.406,405.04999999999995,2417.16192
94.885,404.04999999999995,2428.36938
100.373,403.51,2439.34318
105.850,402.54999999999995,2450.23274
111.344,401.89,2461.0001600000005
116.825,401.27,2471.6138999999994
122.292,400.53,2482.1644800000004
127.842,399.71000000000004,2492.62874
133.329,399.00999999999993,2502.9434800000004
138.816,398.28999999999996,2513.0561399999997
144.291,397.75,2523.0637800000004
149.768,396.95,2532.9637799999996
155.240,396.25,2542.7711000000004
160.715,395.75,2552.4858200000003
166.202,394.92999999999995,2562.0762999999997
171.697,394.25,2571.5720200000005
177.228,393.75,2581.02142
182.712,393.04999999999995,2590.25396
188.186,392.45,2599.4065
193.659,391.84999999999997,2608.4705999999996
199.134,391.15,2617.39786
204.603,390.75,2626.24948
210.074,390.25,2634.97462
215.548,389.49,2643.63868
221.025,389.16999999999996,2652.37644
226.577,388.54999999999995,2660.74784
232.063,387.84999999999997,2669.12554
237.534,387.34999999999997,2677.3895600000005
243.021,386.89,2685.60516
248.493,386.49,2693.6818
253.967,385.97,2701.71
259.437,385.54999999999995,2709.6371599999998
264.912,384.83,2717.4864000000002
270.391,384.40999999999997,2725.25562
275.865,383.95,2732.9725999999996
281.347,383.49,2740.72292
286.910,382.95,2748.21212
292.374,382.57,2755.7329
297.860,381.95,2763.01156
303.340,381.73,2770.3639
308.834,381.31,2777.5919999999996
314.313,380.7299999999999,2784.75486
319.790,380.34999999999997,2791.84612
325.261,379.95,2798.95212
330.741,379.47,2805.88968
336.211,379.15,2812.77464
341.682,378.73,2819.64058
347.166,378.34999999999997,2826.4392
352.654,377.95,2833.1643000000004
358.127,377.54999999999995,2839.8008
363.607,377.15,2846.35518
369.067,376.84999999999997,2852.9200599999995
374.569,376.34999999999997,2859.41548
380.046,375.95,2865.8393
385.520,375.45,2872.1852200000003
390.996,375.25,2878.5143200000007
396.481,374.84999999999997,2884.77394
401.972,374.45,2890.96612
407.449,374.25,2897.0089
412.939,373.65,2903.0242399999997
418.408,373.54999999999995,2909.05858
423.881,373.25,2915.02974
429.369,372.65,2920.9039999999995
434.844,372.45,2926.7404200000005
440.339,372.25,2932.61892
445.817,371.84999999999997,2938.5946799999997
451.287,371.54999999999995,2944.1784
456.770,371.25,2949.8610999999996
462.234,370.84999999999997,2955.59222
467.714,370.45,2961.00966
473.190,370.25,2966.5639
478.659,369.95,2972.1013
484.145,369.57,2977.5503
489.633,369.34999999999997,2982.97826
495.116,369.04999999999995,2988.3450999999995
500.634,368.75,2993.7267400000005
506.117,368.49,2999.06414
511.602,368.19000000000005,3004.32362
517.074,367.86999999999995,3009.4989000000005
522.550,367.54999999999995,3014.64262
528.019,367.33,3019.8242
533.497,366.95,3024.88998
538.983,366.75,3029.9684
544.470,366.45,3035.1331600000003
549.942,366.25,3040.05156
555.402,365.95,3045.03132
560.879,365.66999999999996,3049.98132
566.370,365.34999999999997,3054.9102600000006
571.846,365.23,3059.77184
577.320,364.89,3064.62074
582.886,364.69000000000005,3069.4023
588.361,364.36999999999995,3074.2891200000004
593.917,364.04999999999995,3078.98434
599.399,363.84999999999997,3083.67328
604.875,363.60999999999996,3088.3537399999996
610.347,363.39,3092.985820000001
615.844,363.16999999999996,3097.6410400000004
621.331,362.95,3102.25838
626.804,362.65,3106.75778
632.319,362.42999999999995,3111.33302
637.801,362.15,3115.81768
643.270,361.95,3120.39078
648.740,361.75,3124.95126
654.211,361.45,3129.36224
659.697,361.34999999999997,3133.7079599999997
665.176,361.04999999999995,3138.1463000000003
670.667,360.84999999999997,3142.50258
676.159,360.54999999999995,3146.87794
681.649,360.34999999999997,3151.26158
687.123,360.15,3155.5778400000004
692.609,359.86999999999995,3159.96142
698.197,359.73,3164.1871199999996
703.680,359.45,3168.3349600000006
709.163,359.25,3172.4785199999997
714.655,359.04999999999995,3176.67478
720.132,358.84999999999997,3180.7825399999997
725.621,358.57,3184.85246
731.099,358.34999999999997,3188.9539200000004
736.572,358.15,3193.0512
742.049,357.95,3197.15898
747.524,357.75,3201.0941399999997
752.991,357.54999999999995,3205.14298
758.464,357.28999999999996,3209.1960400000003
763.966,357.04999999999995,3213.10592
769.462,356.92999999999995,3217.10004
774.934,356.75,3221.0836000000004
780.414,356.51,3225.01244
785.886,356.34999999999997,3228.9475599999996
791.353,356.15,3232.6932399999996
796.826,355.95,3236.50624
802.306,355.75,3240.3129799999997
807.771,355.54999999999995,3244.2165200000004
813.244,355.34999999999997,3248.0885399999997
818.726,355.21000000000004,3251.95248
824.205,354.95,3255.8792000000003
829.711,354.78999999999996,3259.6711800000003
835.192,354.59,3263.4842
840.672,354.45,3267.23196
846.151,354.25,3270.9649999999997
851.622,354.04999999999995,3274.62432
857.101,353.84999999999997,3278.3636400000005
862.571,353.75,3282.07984
868.045,353.45,3285.7749599999997
873.520,353.34999999999997,3289.4279800000004
878.992,353.25,3293.0494
884.462,353.04999999999995,3296.6813799999995
889.937,352.75,3300.3006800000003
895.437,352.54999999999995,3304.00212
900.901,352.45,3307.57304
906.385,352.25,3311.1734000000006
911.856,352.04999999999995,3314.92746
917.328,351.95,3318.2204599999995
922.808,351.75,3322.0103000000004
928.278,351.54999999999995,3325.5159400000002
933.746,351.34999999999997,3328.9036800000003
939.226,351.21000000000004,3332.49352
944.691,351.04999999999995,3336.00548
950.168,350.78999999999996,3339.4542800000004
955.644,350.65,3342.9662
961.141,350.54999999999995,3346.5665600000007
966.618,350.34999999999997,3350.36906
972.099,350.23,3353.8368
977.574,350.04999999999995,3357.35746
983.080,349.84999999999997,3360.8862400000007
988.562,349.75,3364.40662
994.032,349.54999999999995,3368.67022
999.515,349.34999999999997,3374.81822
1004.997,349.13,3377.9680400000007
1010.480,348.95,3381.5284199999996
1015.974,348.84999999999997,3384.9982600000003
1021.484,348.69000000000005,3388.4343799999997
1026.965,348.54999999999995,3391.82844
1032.435,348.34999999999997,3395.25196
1037.905,348.25,3398.6502
1043.385,348.03,3402.09266
1048.880,347.84999999999997,3405.44248
1054.354,347.71000000000004,3408.8386
1059.828,347.45,3412.1884400000004
1065.309,347.34999999999997,3415.4898200000002
1070.786,347.15,3418.9217799999997
1076.258,346.97,3422.2653
1081.732,346.84999999999997,3425.60668
1087.232,346.75,3428.9123
1092.723,346.54999999999995,3432.3105600000004
1098.190,346.34999999999997,3435.6035199999997
1103.665,346.25,3438.87336
1109.149,345.97,3442.17474
1114.631,345.84999999999997,3445.5414000000005
1120.197,345.75,3448.7564999999995
1125.675,345.54999999999995,3452.02208
1131.152,345.45,3455.3045599999996
1136.625,345.28999999999996,3458.5616999999997
1142.098,345.15,3461.7853999999998
1147.578,344.95,3465.0468
1153.119,344.81,3468.2597800000003
1158.602,344.65,3471.4958999999994
1164.084,344.49,3474.6962399999998
1169.560,344.34999999999997,3477.86708
1175.029,344.25,3481.0463600000003
1180.515,344.04999999999995,3484.23196
1185.992,343.95,3487.4070399999996
1191.472,343.84999999999997,3490.5526
1196.952,343.65,3493.7277000000004
1202.433,343.45,3496.88382
1207.913,343.34999999999997,3500.0336
1213.391,343.25,3503.1286600000008
1218.892,343.03,3506.2974200000003
1224.368,342.84999999999997,3509.40932
1229.841,342.75,3512.531740000001
1235.316,342.54999999999995,3515.65838
1240.785,342.39,3518.75768
1246.261,342.25,3521.8738
1251.725,342.07,3524.94778
1257.197,341.95,3528.0091600000005
1262.671,341.84999999999997,3531.1294799999996
1268.150,341.73,3534.2034999999996
1273.625,341.54999999999995,3537.2775
1279.108,341.39,3540.43992
1284.615,341.28999999999996,3543.50552
1290.097,341.04999999999995,3546.8069200000004
1295.584,340.95,3550.1441
1301.054,340.84999999999997,3553.12126
1306.529,340.71000000000004,3556.16576
1312.013,340.54999999999995,3559.2250400000003
1317.478,340.45,3562.1516600000004
1322.952,340.34999999999997,3565.3123800000003
1328.442,340.16999999999996,3568.2833399999995
1333.919,339.95,3571.34048
1339.400,339.84999999999997,3574.3828999999996
1344.875,339.75,3577.5158800000004
1350.384,339.54999999999995,3580.4677600000005
1355.891,339.45,3583.2259400000003
1361.368,339.34999999999997,3586.03676
1366.848,339.15,3588.9928800000002
1372.314,339.04999999999995,3592.88168
1377.783,338.95,3596.78946
1383.260,338.81,3599.8677000000002
1388.739,338.65,3602.84482
1394.225,338.45,3605.8114400000004
1399.703,338.36999999999995,3608.7864999999997
1405.185,338.25,3611.64156
1410.669,338.04999999999995,3614.66714
1416.177,337.84999999999997,3617.59378
1421.652,337.75,3620.5056400000003
1427.143,337.65,3623.5354399999997
1432.631,337.54999999999995,3626.5462400000006
1438.112,337.45,3629.3633999999997
1443.606,337.25,3631.7720600000002
1449.076,337.04999999999995,3634.9997799999996
1454.551,336.95,3637.579
1460.037,336.95,3640.36664
1465.506,336.75,3643.26382
1470.975,336.59,3646.0535599999994
1476.460,336.45,3648.5948799999996
1481.972,336.34999999999997,3651.39306
1487.456,336.21000000000004,3654.16598
1492.936,336.04999999999995,3656.8441599999996
1498.408,335.95,3659.64654
1503.887,335.89,3662.4215799999997
1509.381,335.75,3665.23872
1514.860,335.54999999999995,3668.2369200000003
1520.330,335.45,3671.0733200000004
1525.811,335.34999999999997,3673.96204
1531.281,335.15,3676.8275999999996
1536.781,335.04999999999995,3679.61314
1542.278,334.95,3682.47028
1547.763,334.84999999999997,3685.1948
1553.240,334.65,3688.0666600000004
1558.710,334.54999999999995,3690.8101
1564.188,334.45,3693.9915
1569.682,334.34999999999997,3696.4254200000005
1575.178,334.25,3699.19206
1580.661,334.04999999999995,3701.8891799999997
1586.145,333.95,3704.89368
1591.624,333.84999999999997,3707.84134
1597.098,333.65,3710.3953200000005
1602.580,333.54999999999995,3713.10718
1608.084,333.45,3715.8906199999997
1613.569,333.34999999999997,3718.5140400000005
1619.049,333.25,3721.3164399999996
1624.529,333.04999999999995,3724.08938
1630.088,332.95,3726.78438
1635.569,332.84999999999997,3729.43938
1641.048,332.75,3732.19548
1646.529,332.59,3734.98522
1652.007,332.45,3737.7455
1657.484,332.42999999999995,3740.4173800000003
1662.954,332.25,3743.27242
1668.435,332.04999999999995,3746.0053400000006
1673.963,331.95,3748.5192799999995
1679.447,331.84999999999997,3751.0942999999997
1684.920,331.75,3753.68192
1690.392,331.66999999999996,3756.3642999999997
1695.865,331.54999999999995,3759.02564
1701.338,331.45,3761.8428
1706.804,331.34999999999997,3764.4893600000005
1712.291,331.25,3766.8980600000004
1717.758,331.04999999999995,3769.8057200000003
1723.232,330.95,3773.1281799999997
1728.711,330.84999999999997,3775.6675600000003
1734.177,330.75,3778.2994400000002
1739.674,330.54999999999995,3780.86812
1745.153,330.45,3783.3652199999997
1750.625,330.34999999999997,3785.9823200000005
1756.107,330.25,3788.6836800000005
1761.586,330.15,3791.3134399999994
1767.057,330.04999999999995,3793.6505000000006
1772.528,329.95,3796.58554
1778.007,329.84999999999997,3798.6952600000004
1783.481,329.75,3801.52502
1788.960,329.54999999999995,3804.41374
1794.427,329.45,3806.8940000000002
1799.903,329.34999999999997,3809.1742399999994
1805.396,329.25,3811.804
1810.869,329.04999999999995,3814.8990600000006
1816.352,329.04999999999995,3817.6488
1821.840,328.90999999999997,3820.1564599999997
1827.313,328.75,3822.13978
1832.783,328.65,3824.9822
1838.257,328.54999999999995,3827.6309
1843.727,328.34999999999997,3829.71322
1849.200,328.34999999999997,3832.32192
1854.689,328.25,3835.07168
1860.165,328.15,3837.7772000000004
1865.637,328.04999999999995,3840.23854
1871.134,327.95,3843.7420599999996
1876.621,327.84999999999997,3846.4476000000004
1882.094,327.75,3849.12576
1887.576,327.63,3851.78922
1893.055,327.45,3854.3768600000003
1898.526,327.45,3857.05714
1904.016,327.34999999999997,3859.6953000000003
1909.514,327.15,3862.3460999999998
1914.998,327.04999999999995,3864.9527000000003
1920.483,326.95,3867.04766
1925.960,326.86999999999995,3869.55948
1931.444,326.75,3872.7661400000006
1936.943,326.54999999999995,3875.3706000000006
1942.423,326.54999999999995,3878.0803799999994
1947.904,326.39,3880.72114
1953.373,326.34999999999997,3883.5382799999998
1958.852,326.23,3886.2311999999997
1964.324,326.04999999999995,3888.7367399999994
1969.794,325.84999999999997,3891.2275200000004
1975.277,325.84999999999997,3894.16464
1980.743,325.75,3896.76074
1986.217,325.54999999999995,3899.44522
1991.712,325.54999999999995,3902.3044800000002
1997.202,325.34999999999997,3904.96368
2002.694,325.25,3907.56394
2008.174,325.15,3910.1874000000003
2013.642,325.04999999999995,3912.99822
2019.103,324.95,3915.46584
2024.574,324.84999999999997,3918.47034
2030.047,324.75,3921.4285600000003
2035.517,324.54999999999995,3923.9467000000004
2040.990,324.45,3926.9386
2046.464,324.34999999999997,3930.14738
2051.943,324.25,3933.43822
2057.424,324.25,3936.91648
2062.931,324.04999999999995,3940.6748
2068.415,323.95,3944.4877800000004
2073.882,323.75,3948.5934800000005
2079.356,323.56999999999994,3953.0676399999998
2084.825,323.45,3957.7355000000002
2090.300,323.25,3962.72762
2095.772,323.04999999999995,3968.0671199999997
2101.245,322.84999999999997,3973.70772
2106.727,322.75,3979.6009399999994
2112.199,322.47,3985.2544800000005
2117.672,322.25,3991.6656799999996
2123.147,322.01,3998.53586
2128.650,321.81,4005.45236
2134.128,321.49,4012.9899999999993
2139.615,321.25,4020.08756
2145.094,320.95,4027.41886
2150.591,320.73,4035.1186399999997
2156.070,320.34999999999997,4042.7531000000004
2161.538,320.04999999999995,4050.4718000000003
2167.013,319.75,4058.3421000000003
2172.499,319.45,4066.15132
2177.982,319.25,4074.1269
2183.450,318.84999999999997,4082.04352
2188.923,318.54999999999995,4090.08044
2194.427,318.25,4098.50026
2199.907,317.84999999999997,4106.58954
2205.385,317.54999999999995,4114.7356199999995
2210.863,317.25,4122.881759999999
2216.341,316.95,4130.94366
2221.814,316.53,4139.11714
2227.412,316.25,4147.55166
2232.882,315.95,4155.67046
2238.373,315.61,4163.85236
2243.848,315.28999999999996,4171.707939999999
2249.408,314.92999999999995,4179.71082
2254.883,314.65,4188.07592
2260.385,314.25,4196.4394
2265.860,313.90999999999997,4204.36656
2271.330,313.59,4211.9905
2276.816,313.34999999999997,4220.47352
2282.307,312.95,4227.78162
2287.780,312.56999999999994,4236.085639999999
2293.268,312.33,4243.844340000001
2298.743,311.95,4252.29366
2304.231,311.71000000000004,4260.2944800000005
2309.723,311.34999999999997,4268.18584
2315.200,310.99,4275.3760600000005
2320.691,310.66999999999996,4283.46532
2326.203,310.36999999999995,4291.2577
2331.700,310.01,4298.925940000001
2337.184,309.71000000000004,4306.58596
2342.680,309.39,4313.72776
2348.169,309.04999999999995,4321.64436
2353.647,308.77,4328.85772
2359.138,308.45,4336.479560000001
2364.630,308.21000000000004,4344.07616
2370.120,307.84999999999997,4351.59906
2375.599,307.54999999999995,4359.68412
2381.082,307.25,4367.767040000001
2386.567,306.95,4374.7025
2392.074,306.63,4382.1475
2397.647,306.31,4389.33772
2403.125,306.01,4396.0626600000005
2408.609,305.75,4403.9878
2414.083,305.45,4410.92136
2419.575,305.06999999999994,4418.6758
2425.057,304.84999999999997,4425.72708
2430.544,304.54999999999995,4432.89416
2436.053,304.31,4439.94964
2441.524,303.95,4447.06408
2447.033,303.68999999999994,4453.868979999999
2452.516,303.45,4460.8655
2458.023,303.04999999999995,4467.6177800000005
2463.512,302.83,4474.07108
2469.015,302.54999999999995,4480.814960000001
2474.492,302.31,4488.27888
2479.973,302.04999999999995,4494.7953800000005
2485.456,301.75,4501.36236
2490.935,301.45,4507.901980000001
2496.415,301.25,4514.50306
2501.937,300.90999999999997,4521.14378
2507.439,300.75,4527.47286
2512.929,300.45,4534.15144
2518.414,300.25,4540.55424
2523.915,299.92999999999995,4547.026459999999
2529.392,299.63,4553.5661
2534.875,299.40999999999997,4559.79832
2540.348,299.15,4566.00954
2545.819,298.95,4572.3638599999995
2551.302,298.65,4578.452920000001
2556.773,298.45,4584.65988
2562.255,298.23,4590.8584
2567.738,297.84999999999997,4596.45898
2573.202,297.71000000000004,4602.71018
2578.692,297.45,4609.11716
2584.195,297.18999999999994,4615.11198
2589.679,296.95,4620.7883600000005
2595.161,296.75,4626.5258
2600.629,296.45,4632.494820000001
2606.114,296.25,4638.52282
2611.591,296.01,4644.361320000001
2617.075,295.75,4650.060879999999
2622.550,295.54999999999995,4655.8151800000005
2628.028,295.34999999999997,4661.48524
2633.519,295.15,4667.12582
2639.007,294.95,4672.78324
2644.472,294.65,4678.81336
2649.984,294.45,4684.0223
2655.464,294.25,4689.68816
2660.941,293.95,4695.40246
2666.419,293.77,4701.42202
2671.890,293.54999999999995,4707.00366
2677.367,293.34999999999997,4712.30528
2682.849,293.11,4717.476339999999
2688.327,292.95,4721.494
2693.810,292.75,4726.49244
2699.283,292.45,4732.34566
2704.760,292.34999999999997,4737.6641
2710.239,292.04999999999995,4742.5088399999995
2715.737,291.84999999999997,4747.6440999999995
2721.219,291.75,4752.9625399999995
2726.690,291.45,4757.77568
2732.170,291.25,4763.35098
2737.637,291.04999999999995,4768.10938
2743.110,290.95,4773.680480000001
2748.581,290.75,4778.038859999999
2754.056,290.54999999999995,4782.91934
2759.535,290.42999999999995,4788.18094
2765.013,290.25,4792.79618
2770.489,289.95,4797.3377
2775.976,289.78999999999996,4802.11924
2781.475,289.54999999999995,4807.5198
2786.951,289.34999999999997,4812.427679999999
2792.426,289.25,4816.9545
2797.904,289.04999999999995,4820.66646
2803.376,288.90999999999997,4825.343
2808.857,288.75,4829.89088
2814.344,288.54999999999995,4834.5061000000005
2819.820,288.34999999999997,4839.09816
2825.306,288.15,4843.40176
2830.788,287.95,4847.993820000001
2836.262,287.84999999999997,4852.329
2841.743,287.65,4856.672619999999
2847.252,287.45,4861.203640000001
2852.727,287.27,4865.27982
2858.205,287.15,4870.983560000001
2863.682,286.95,4874.106
2869.154,286.84999999999997,4878.7844
2874.631,286.54999999999995,4882.7069200000005
2880.109,286.45,4886.4294
2885.583,286.34999999999997,4890.4256000000005
2891.060,286.25,4894.57974
2896.532,286.04999999999995,4898.5191
2902.004,285.92999999999995,4902.57846
2907.484,285.75,4906.55782
2912.981,285.54999999999995,4910.25084
2918.461,285.45,4914.118619999999
2923.936,285.25,4917.919019999999
2929.405,285.04999999999995,4921.586759999999
2934.899,284.95,4925.20606
2940.372,284.75,4927.72426
2945.916,284.54999999999995,4931.449259999999
2951.383,284.45,4935.24964
2956.858,284.34999999999997,4938.01836
2962.328,284.25,4940.75756
2967.812,284.04999999999995,4942.9894
2973.283,283.95,4944.9222199999995
2978.797,283.84999999999997,4947.490919999999
2984.278,283.75,4949.30162
2989.754,283.65,4949.78166
2995.227,283.54999999999995,4950.29752
3000.704,283.45,4951.22604
3006.187,283.34999999999997,4953.36944
3011.658,283.25,4957.9741
3017.141,283.15,4961.35128
3022.619,283.04999999999995,4966.27182
3028.090,282.95,4970.341719999999
3033.562,282.84999999999997,4975.11906
3039.042,282.75,4980.17644
3044.532,282.54999999999995,4983.95366
3050.012,282.45,4988.24044
3055.487,282.33,4992.3777199999995
3060.957,282.25,4996.61182
3066.437,282.01,5000.271159999999
3071.909,281.84999999999997,5003.71782
3077.386,281.75,5007.3119
3082.861,281.54999999999995,5010.89332
3088.351,281.45,5014.794779999999
3093.824,281.25,5018.376200000001
3099.299,281.15,5021.923940000001
3104.809,281.04999999999995,5026.24228
3110.286,280.95,5029.67002
3115.753,280.75,5032.023939999999
3121.243,280.54999999999995,5035.52986
3126.722,280.45,5038.7239
3132.206,280.34999999999997,5042.2105599999995
